theta,A_r,A_theta,A_phi
0,2,0,0
0.00314473739098077,1.99999011063489,0.00314473220773636,0
0.00628947478196155,1.99996044263737,0.00628943331606775,0
0.00943421217294232,1.99991099630082,0.00943407222589675,0
0.0125789495639231,1.99984177211425,0.0125786178387411,0
0.0157236869549039,1.99975277076224,0.015723039057041,0
0.0188684243458846,1.99964399312495,0.0188673047844671,0
0.0220131617368654,1.99951544027812,0.0220113839262276,0
0.0251578991278462,1.99936711349307,0.0251552453893758,0
0.028302636518827,1.99919901423664,0.0282988580831181,0
0.0314473739098077,1.99901114417124,0.0314421909191206,0
0.0345921113007885,1.99880350515478,0.0345852128118173,0
0.0377368486917693,1.99857609924068,0.0377278926787172,0
0.0408815860827501,1.99832892867784,0.0408701994407116,0
0.0440263234737308,1.99806199591061,0.0440121020223817,0
0.0471710608647116,1.9977753035788,0.0471535693523057,0
0.0503157982556924,1.9974688545176,0.0502945703633662,0
0.0534605356466731,1.99714265175761,0.0534350739930574,0
0.0566052730376539,1.99679669852477,0.0565750491837923,0
0.0597500104286347,1.99643099824032,0.0597144648832099,0
0.0628947478196155,1.99604555452082,0.0628532900444819,0
0.0660394852105962,1.99564037117806,0.0659914936266205,0
0.069184222601577,1.99521545221905,0.0691290445947845,0
0.0723289599925578,1.99477080184595,0.072265911920587,0
0.0754736973835386,1.99430642445609,0.0754020645824016,0
0.0786184347745193,1.99382232464186,0.0785374715656696,0
0.0817631721655001,1.99331850719071,0.0816721018632066,0
0.0849079095564809,1.99279497708505,0.0848059244755092,0
0.0880526469474617,1.99225173950229,0.0879389084110613,0
0.0911973843384424,1.99168879981468,0.0910710226866408,0
0.0943421217294232,1.99110616358935,0.0942022363276263,0
0.097486859120404,1.9905038365882,0.0973325183683026,0
0.100631596511385,1.98988182476786,0.100461837852168,0
0.103776333902366,1.98924013427963,0.103590163832239,0
0.106921071293346,1.98857877146943,0.106717465371359,0
0.110065808684327,1.9878977428777,0.1098437115425,0
0.113210546075308,1.98719705523941,0.112968871429073,0
0.116355283466289,1.98647671548389,0.11609291412523,0
0.119500020857269,1.98573673073485,0.119215808736173,0
0.12264475824825,1.98497710831027,0.122337524378457,0
0.125789495639231,1.98419785572234,0.125458030180296,0
0.128934233030212,1.98339898067736,0.128577295281869,0
0.132078970421192,1.98258049107571,0.131695288835624,0
0.135223707812173,1.98174239501173,0.134811980006584,0
0.138368445203154,1.98088470077365,0.137927337972654,0
0.141513182594135,1.98000741684353,0.141041331924919,0
0.144657919985116,1.97911055189714,0.144153931067958,0
0.147802657376096,1.97819411480392,0.147265104620141,0
0.150947394767077,1.97725811462685,0.150374821813937,0
0.154092132158058,1.97630256062236,0.153483051896216,0
0.157236869549039,1.97532746224029,0.156589764128558,0
0.160381606940019,1.97433282912373,0.159694927787549,0
0.163526344331,1.97331867110898,0.162798512165094,0
0.166671081721981,1.97228499822542,0.165900486568713,0
0.169815819112962,1.97123182069542,0.169000820321849,0
0.172960556503943,1.97015914893422,0.172099482764169,0
0.176105293894923,1.96906699354988,0.175196443251869,0
0.179250031285904,1.96795536534312,0.178291671157976,0
0.182394768676885,1.96682427530724,0.181385135872651,0
0.185539506067866,1.96567373462799,0.184476806803492,0
0.188684243458846,1.9645037546835,0.187566653375837,0
0.191828980849827,1.96331434704412,0.190654645033065,0
0.194973718240808,1.96210552347234,0.193740751236898,0
0.198118455631789,1.96087729592265,0.196824941467705,0
0.20126319302277,1.95962967654146,0.199907185224805,0
0.20440793041375,1.95836267766692,0.202987452026761,0
0.207552667804731,1.95707631182884,0.206065711411693,0
0.210697405195712,1.95577059174857,0.209141932937567,0
0.213842142586693,1.95444553033885,0.212216086182508,0
0.216986879977673,1.9531011407037,0.21528814074509,0
0.220131617368654,1.95173743613827,0.218358066244645,0
0.223276354759635,1.95035443012874,0.221425832321559,0
0.226421092150616,1.94895213635217,0.224491408637573,0
0.229565829541596,1.94753056867633,0.227554764876082,0
0.232710566932577,1.94608974115965,0.23061587074244,0
0.235855304323558,1.94462966805098,0.233674695964252,0
0.239000041714539,1.94315036378952,0.23673121029168,0
0.24214477910552,1.94165184300466,0.239785383497736,0
0.2452895164965,1.9401341205158,0.242837185378587,0
0.248434253887481,1.93859721133227,0.24588658575385,0
0.251578991278462,1.93704113065312,0.248933554466892,0
0.254723728669443,1.935465893867,0.251978061385125,0
0.257868466060423,1.933871516552,0.25502007640031,0
0.261013203451404,1.9322580144755,0.25805956942885,0
0.264157940842385,1.93062540359401,0.261096510412088,0
0.267302678233366,1.92897370005301,0.264130869316606,0
0.270447415624347,1.92730292018682,0.267162616134521,0
0.273592153015327,1.92561308051837,0.270191720883782,0
0.276736890406308,1.92390419775911,0.273218153608466,0
0.279881627797289,1.92217628880881,0.276241884379074,0
0.28302636518827,1.92042937075538,0.27926288329283,0
0.28617110257925,1.91866346087474,0.282281120473972,0
0.289315839970231,1.91687857663062,0.28529656607405,0
0.292460577361212,1.91507473567438,0.288309190272222,0
0.295605314752193,1.91325195584488,0.291318963275547,0
0.298750052143174,1.91141025516823,0.294325855319282,0
0.301894789534154,1.90954965185771,0.297329836667172,0
0.305039526925135,1.90767016431348,0.30033087761175,0
0.308184264316116,1.90577181112249,0.303328948474627,0
0.311329001707097,1.90385461105825,0.306324019606783,0
0.314473739098077,1.90191858308065,0.309316061388869,0
0.317618476489058,1.89996374633577,0.312305044231489,0
0.320763213880039,1.89799012015572,0.315290938575502,0
0.32390795127102,1.89599772405839,0.318273714892308,0
0.327052688662,1.89398657774733,0.321253343684144,0
0.330197426052981,1.89195670111148,0.324229795484371,0
0.333342163443962,1.88990811422506,0.327203040857772,0
0.336486900834943,1.88784083734727,0.330173050400837,0
0.339631638225924,1.88575489092217,0.333139794742058,0
0.342776375616904,1.88365029557845,0.336103244542216,0
0.345921113007885,1.88152707212922,0.339063370494675,0
0.349065850398866,1.87938524157182,0.342020143325669,0
0.352210587789847,1.87722482508758,0.34497353379459,0
0.355355325180827,1.87504584404165,0.347923512694284,0
0.358500062571808,1.87284831998278,0.35087005085133,0
0.361644799962789,1.87063227464309,0.353813119126339,0
0.36478953735377,1.86839772993784,0.356752688414232,0
0.367934274744751,1.86614470796527,0.359688729644536,0
0.371079012135731,1.86387323100635,0.362621213781667,0
0.374223749526712,1.86158332152452,0.365550111825219,0
0.377368486917693,1.85927500216555,0.36847539481025,0
0.380513224308674,1.85694829575725,0.371397033807568,0
0.383657961699654,1.85460322530926,0.374314999924019,0
0.386802699090635,1.85223981401285,0.37722926430277,0
0.389947436481616,1.84985808524065,0.380139798123597,0
0.393092173872597,1.84745806254645,0.383046572603168,0
0.396236911263577,1.84503976966494,0.385949558995329,0
0.399381648654558,1.84260323051151,0.388848728591387,0
0.402526386045539,1.84014846918198,0.391744052720397,0
0.40567112343652,1.83767550995239,0.394635502749441,0
0.408815860827501,1.83518437727873,0.397523050083913,0
0.411960598218481,1.83267509579673,0.400406666167804,0
0.415105335609462,1.83014769032157,0.403286322483981,0
0.418250073000443,1.82760218584771,0.406161990554472,0
0.421394810391424,1.82503860754855,0.409033641940746,0
0.424539547782404,1.82245698077627,0.411901248243993,0
0.427684285173385,1.81985733106151,0.414764781105407,0
0.430829022564366,1.81723968411316,0.417624212206467,0
0.433973759955347,1.81460406581809,0.420479513269214,0
0.437118497346328,1.81195050224088,0.423330656056534,0
0.440263234737308,1.8092790196236,0.426177612372435,0
0.443407972128289,1.8065896443855,0.429020354062326,0
0.44655270951927,1.80388240312282,0.431858853013297,0
0.449697446910251,1.80115732260844,0.434693081154396,0
0.452842184301231,1.79841442979167,0.437523010456904,0
0.455986921692212,1.795653751798,0.440348612934619,0
0.459131659083193,1.79287531592876,0.443169860644126,0
0.462276396474174,1.79007914966094,0.445986725685076,0
0.465421133865154,1.78726528064682,0.448799180200462,0
0.468565871256135,1.78443373671381,0.451607196376895,0
0.471710608647116,1.78158454586406,0.454410746444877,0
0.474855346038097,1.77871773627426,0.457209802679079,0
0.478000083429078,1.77583333629535,0.460004337398611,0
0.481144820820058,1.7729313744522,0.462794322967299,0
0.484289558211039,1.77001187944337,0.465579731793957,0
0.48743429560202,1.76707488014083,0.46836053633266,0
0.490579032993001,1.76412040558962,0.471136709083018,0
0.493723770383981,1.76114848500763,0.473908222590443,0
0.496868507774962,1.75815914778526,0.476675049446427,0
0.500013245165943,1.75515242348516,0.47943716228881,0
0.503157982556924,1.75212834184192,0.482194533802048,0
0.506302719947905,1.74908693276179,0.484947136717488,0
0.509447457338885,1.74602822632238,0.487694943813634,0
0.512592194729866,1.74295225277234,0.49043792791642,0
0.515736932120847,1.73985904253112,0.493176061899474,0
0.518881669511828,1.73674862618859,0.495909318684389,0
0.522026406902808,1.73362103450479,0.498637671240991,0
0.525171144293789,1.73047629840962,0.501361092587606,0
0.52831588168477,1.72731444900252,0.504079555791325,0
0.531460619075751,1.72413551755218,0.506793033968272,0
0.534605356466732,1.72093953549622,0.509501500283873,0
0.537750093857712,1.71772653444085,0.512204927953114,0
0.540894831248693,1.71449654616063,0.514903290240813,0
0.544039568639674,1.71124960259809,0.517596560461878,0
0.547184306030655,1.70798573586344,0.520284711981579,0
0.550329043421635,1.70470497823425,0.522967718215802,0
0.553473780812616,1.70140736215512,0.525645552631321,0
0.556618518203597,1.6980929202374,0.528318188746051,0
0.559763255594578,1.69476168525879,0.53098560012932,0
0.562907992985558,1.69141369016311,0.533647760402122,0
0.566052730376539,1.6880489680599,0.536304643237382,0
0.56919746776752,1.68466755222412,0.538956222360216,0
0.572342205158501,1.68126947609584,0.54160247154819,0
0.575486942549482,1.67785477327985,0.544243364631579,0
0.578631679940462,1.67442347754542,0.546878875493627,0
0.581776417331443,1.67097562282587,0.549508978070806,0
0.584921154722424,1.6675112432183,0.55213364635307,0
0.588065892113405,1.66403037298323,0.554752854384117,0
0.591210629504385,1.66053304654424,0.557366576261642,0
0.594355366895366,1.65701929848768,0.559974786137595,0
0.597500104286347,1.65348916356229,0.562577458218437,0
0.600644841677328,1.64994267667886,0.565174566765393,0
0.603789579068309,1.64637987290989,0.567766086094708,0
0.606934316459289,1.64280078748925,0.570351990577901,0
0.61007905385027,1.63920545581182,0.57293225464202,0
0.613223791241251,1.63559391343316,0.57550685276989,0
0.616368528632232,1.63196619606911,0.578075759500371,0
0.619513266023212,1.62832233959551,0.580638949428605,0
0.622658003414193,1.62466238004777,0.583196397206273,0
0.625802740805174,1.62098635362058,0.585748077541839,0
0.628947478196155,1.61729429666751,0.588293965200805,0
0.632092215587135,1.61358624570065,0.590834035005958,0
0.635236952978116,1.60986223739027,0.59336826183762,0
0.638381690369097,1.60612230856445,0.595896620633898,0
0.641526427760078,1.60236649620871,0.598419086390927,0
0.644671165151059,1.59859483746566,0.600935634163123,0
0.647815902542039,1.5948073696346,0.603446239063426,0
0.65096063993302,1.59100413017118,0.605950876263548,0
0.654105377324001,1.58718515668703,0.608449520994217,0
0.657250114714982,1.58335048694937,0.610942148545423,0
0.660394852105962,1.57950015888065,0.613428734266662,0
0.663539589496943,1.57563421055817,0.61590925356718,0
0.666684326887924,1.57175268021371,0.618383681916215,0
0.669829064278905,1.56785560623313,0.620851994843243,0
0.672973801669886,1.56394302715603,0.623314167938217,0
0.676118539060866,1.56001498167532,0.625770176851806,0
0.679263276451847,1.55607150863688,0.628219997295642,0
0.682408013842828,1.55211264703916,0.630663605042557,0
0.685552751233809,1.54813843603278,0.633100975926821,0
0.688697488624789,1.54414891492017,0.635532085844384,0
0.69184222601577,1.54014412315516,0.637956910753112,0
0.694986963406751,1.5361241003426,0.640375426673026,0
0.698131700797732,1.53208888623796,0.642787609686539,0
0.701276438188713,1.52803852074694,0.645193435938693,0
0.704421175579693,1.52397304392509,0.647592881637394,0
0.707565912970674,1.5198924959774,0.649985923053647,0
0.710710650361655,1.51579691725788,0.652372536521791,0
0.713855387752636,1.51168634826922,0.654752698439735,0
0.717000125143616,1.50756082966234,0.657126385269189,0
0.720144862534597,1.50342040223599,0.659493573535896,0
0.723289599925578,1.49926510693637,0.661854239829868,0
0.726434337316559,1.49509498485671,0.664208360805614,0
0.729579074707539,1.49091007723687,0.666555913182372,0
0.73272381209852,1.48671042546294,0.668896873744339,0
0.735868549489501,1.4824960710668,0.671231219340903,0
0.739013286880482,1.47826705572574,0.673558926886866,0
0.742158024271463,1.47402342126204,0.675879973362679,0
0.745302761662443,1.46976520964255,0.678194335814666,0
0.748447499053424,1.46549246297828,0.680501991355252,0
0.751592236444405,1.46120522352398,0.682802917163189,0
0.754736973835386,1.45690353367772,0.685097090483781,0
0.757881711226366,1.45258743598049,0.68738448862911,0
0.761026448617347,1.44825697311576,0.689665088978262,0
0.764171186008328,1.44391218790905,0.691938868977546,0
0.767315923399309,1.43955312332753,0.694205806140722,0
0.77046066079029,1.43517982247958,0.696465878049222,0
0.77360539818127,1.43079232861436,0.698719062352367,0
0.776750135572251,1.42639068512142,0.700965336767597,0
0.779894872963232,1.4219749355302,0.703204679080684,0
0.783039610354213,1.41754512350968,0.705437067145953,0
0.786184347745193,1.41310129286786,0.707662478886504,0
0.789329085136174,1.40864348755143,0.709880892294429,0
0.792473822527155,1.40417175164525,0.712092285431025,0
0.795618559918136,1.39968612937193,0.714296636427021,0
0.798763297309117,1.39518666509145,0.716493923482783,0
0.801908034700097,1.39067340330064,0.718684124868538,0
0.805052772091078,1.38614638863279,0.720867218924585,0
0.808197509482059,1.38160566585722,0.723043184061509,0
0.81134224687304,1.37705127987878,0.725211998760397,0
0.81448698426402,1.37248327573747,0.727373641573049,0
0.817631721655001,1.36790169860793,0.729528091122188,0
0.820776459045982,1.36330659379907,0.731675326101678,0
0.823921196436963,1.35869800675354,0.733815325276728,0
0.827065933827943,1.35407598304735,0.735948067484103,0
0.830210671218924,1.34944056838939,0.738073531632339,0
0.833355408609905,1.34479180862095,0.740191696701943,0
0.836500146000886,1.34012974971531,0.742302541745609,0
0.839644883391867,1.3354544377773,0.744406045888419,0
0.842789620782847,1.33076591904276,0.746502188328052,0
0.845934358173828,1.32606423987817,0.748590948334991,0
0.849079095564809,1.32134944678016,0.750672305252724,0
0.85222383295579,1.31662158637504,0.752746238497955,0
0.85536857034677,1.31188070541834,0.754812727560799,0
0.858513307737751,1.30712685079436,0.756871752004992,0
0.861658045128732,1.30236006951571,0.758923291468089,0
0.864802782519713,1.29758040872283,0.760967325661667,0
0.867947519910694,1.29278791568354,0.763003834371527,0
0.871092257301674,1.28798263779254,0.76503279745789,0
0.874236994692655,1.28316462257098,0.767054194855599,0
0.877381732083636,1.27833391766597,0.769068006574317,0
0.880526469474617,1.27349057085012,0.771074212698725,0
0.883671206865597,1.26863463002106,0.773072793388718,0
0.886815944256578,1.26376614320094,0.775063728879602,0
0.889960681647559,1.25888515853603,0.777046999482288,0
0.89310541903854,1.25399172429616,0.779022585583491,0
0.896250156429521,1.24908588887428,0.780990467645917,0
0.899394893820501,1.24416770078599,0.782950626208463,0
0.902539631211482,1.23923720866906,0.784903041886404,0
0.905684368602463,1.23429446128291,0.78684769537159,0
0.908829105993444,1.22933950750818,0.788784567432631,0
0.911973843384424,1.22437239634623,0.790713638915094,0
0.915118580775405,1.21939317691861,0.792634890741685,0
0.918263318166386,1.21440189846666,0.794548303912444,0
0.921408055557367,1.20939861035095,0.796453859504929,0
0.924552792948347,1.20438336205082,0.798351538674406,0
0.927697530339328,1.19935620316389,0.800241322654032,0
0.930842267730309,1.19431718340557,0.802123192755044,0
0.93398700512129,1.18926635260857,0.80399713036694,0
0.937131742512271,1.1842037607224,0.805863116957669,0
0.940276479903251,1.17912945781288,0.807721134073807,0
0.943421217294232,1.17404349406164,0.809571163340744,0
0.946565954685213,1.16894591976563,0.811413186462866,0
0.949710692076194,1.16383678533663,0.813247185223733,0
0.952855429467174,1.15871614130073,0.815073141486262,0
0.956000166858155,1.15358403829786,0.816891037192905,0
0.959144904249136,1.14844052708125,0.818700854365828,0
0.962289641640117,1.14328565851696,0.820502575107087,0
0.965434379031098,1.13811948358337,0.822296181598809,0
0.968579116422078,1.13294205337067,0.824081656103364,0
0.971723853813059,1.12775341908036,0.825858980963543,0
0.97486859120404,1.12255363202473,0.827628138602731,0
0.978013328595021,1.11734274362638,0.829389111525083,0
0.981158065986001,1.1121208054177,0.831141882315694,0
0.984302803376982,1.10688786904032,0.832886433640773,0
0.987447540767963,1.10164398624467,0.834622748247817,0
0.990592278158944,1.09638920888942,0.836350808965776,0
0.993737015549924,1.09112358894098,0.838070598705226,0
0.996881752940905,1.085847178473,0.83978210045854,0
1.00002649033189,1.08056002966581,0.84148529730005,0
1.00317122772287,1.07526219480597,0.843180172386222,0
1.00631596511385,1.0699537262857,0.844866708955818,0
1.00946070250483,1.06463467660238,0.846544890330061,0
1.01260543989581,1.05930509835804,0.848214699912802,0
1.01575017728679,1.05396504425882,0.849876121190686,0
1.01889491467777,1.04861456711446,0.851529137733311,0
1.02203965206875,1.0432537198378,0.853173733193393,0
1.02518438945973,1.03788255544419,0.854809891306926,0
1.02832912685071,1.03250112705106,0.856437595893346,0
1.03147386424169,1.0271094878773,0.858056830855688,0
1.03461860163267,1.02170769124282,0.859667580180745,0
1.03776333902366,1.01629579056794,0.861269827939231,0
1.04090807641464,1.01087383937293,0.862863558285931,0
1.04405281380562,1.00544189127744,0.864448755459865,0
1.0471975511966,1,0.866025403784439,0
1.05034228858758,0.994548219357449,0.867593487667601,0
1.05348702597856,0.989086603264438,0.869152991601999,0
1.05663176336954,0.983615205732884,0.870703900165127,0
1.05977650076052,0.978134080871434,0.872246198019486,0
1.0629212381515,0.972643282884934,0.873779869912728,0
1.06606597554248,0.967142866073889,0.875304900677813,0
1.06921071293346,0.96163288483393,0.876821275233154,0
1.07235545032444,0.956113393655272,0.878328978582769,0
1.07550018771542,0.95058444712218,0.879827995816429,0
1.07864492510641,0.945046099912424,0.881318312109807,0
1.08178966249739,0.939498406796742,0.88279991272462,0
1.08493439988837,0.933941422638296,0.884272783008778,0
1.08807913727935,0.928375202392132,0.885736908396529,0
1.09122387467033,0.922799801104635,0.887192274408604,0
1.09436861206131,0.917215273912982,0.888638866652356,0
1.09751334945229,0.911621676044603,0.890076670821906,0
1.10065808684327,0.906019062816628,0.891505672698284,0
1.10380282423425,0.900407489635347,0.892925858149568,0
1.10694756162523,0.894787011995654,0.894337213131027,0
1.11009229901621,0.889157685480505,0.895739723685255,0
1.11323703640719,0.883519565760366,0.897133375942314,0
1.11638177379817,0.877872708592661,0.898518156119867,0
1.11952651118916,0.872217169821222,0.899894050523318,0
1.12267124858014,0.866553005375737,0.901261045545945,0
